# Matter power spectrum P(k) at redshift z=0.5
# for k=1.04895e-05 to 10500.3 h/Mpc,
# number of wavenumbers equal to 152
#    1:k (h/Mpc)              2:P (Mpc/h)^3        
       1.048952935429e-05       2.820080108732e+01 
       1.320553506188e-05       3.521931121771e+01 
       1.662478366574e-05       4.398451105368e+01 
       2.092936262238e-05       5.493108474581e+01 
       2.634850645797e-05       6.860180733452e+01 
       3.317080434276e-05       8.567447214918e+01 
       4.175956851675e-05       1.069953523455e+02 
       5.257218199130e-05       1.336209595371e+02 
       6.618445586232e-05       1.668699828297e+02 
       8.332129335084e-05       2.083878097565e+02 
       1.048952935429e-04       2.602263773102e+02 
       1.320553506188e-04       3.249424851698e+02 
       1.662478366574e-04       4.056884258573e+02 
       2.092936262238e-04       5.064577902354e+02 
       2.634850645797e-04       6.321205137774e+02 
       3.317080434276e-04       7.886996340074e+02 
       4.175956851675e-04       9.835643315447e+02 
       5.257218199130e-04       1.225642726804e+03 
       6.618445586232e-04       1.525610332597e+03 
       8.332129335084e-04       1.896019659878e+03 
       1.048952935429e-03       2.351312977119e+03 
       1.320553506188e-03       2.907575328649e+03 
       1.662478366574e-03       3.581665327033e+03 
       2.092936262238e-03       4.389899754889e+03 
       2.634850645797e-03       5.345363124344e+03 
       3.317080434276e-03       6.454141042549e+03 
       4.175956851675e-03       7.710187219676e+03 
       5.257218199130e-03       9.088330517640e+03 
       6.618445586232e-03       1.053551647022e+04 
       8.332129335084e-03       1.196337434847e+04 
       1.048952935429e-02       1.323556094102e+04 
       1.320553506188e-02       1.416733798967e+04 
       1.662478366571e-02       1.453026140949e+04 
       2.092936245785e-02       1.410200805522e+04 
       2.634838077218e-02       1.278230246213e+04 
       3.315335827376e-02       1.077462235238e+04 
       4.117749966751e-02       8.768703395032e+03 
       4.795254993721e-02       7.618085685192e+03 
       5.286425045417e-02       7.051042562056e+03 
       5.691304009839e-02       6.695975826489e+03 
       6.052726845175e-02       6.427276771285e+03 
       6.389773125215e-02       6.192730183653e+03 
       6.712534820597e-02       5.966039821046e+03 
       7.027060313276e-02       5.733413187690e+03 
       7.337321162010e-02       5.488236879317e+03 
       7.646115596000e-02       5.228939576657e+03 
       7.955530817597e-02       4.957587996260e+03 
       8.267199812167e-02       4.679134727735e+03 
       8.582453480245e-02       4.399993461158e+03 
       8.902415521325e-02       4.127826004670e+03 
       9.228064147818e-02       3.870134221477e+03 
       9.560273636259e-02       3.633635168230e+03 
       9.899843114064e-02       3.423282117208e+03 
       1.024751697738e-01       3.242063699304e+03 
       1.060399965118e-01       3.090528082900e+03 
       1.096996641967e-01       2.966564903958e+03 
       1.134607146169e-01       2.865796700247e+03 
       1.173295385667e-01       2.781601946323e+03 
       1.213124209241e-01       2.705851242768e+03 
       1.254155745339e-01       2.629899169312e+03 
       1.296451656829e-01       2.545832259501e+03 
       1.340073332881e-01       2.448067898405e+03 
       1.385082034762e-01       2.334715762644e+03 
       1.431539009375e-01       2.208062656188e+03 
       1.479505582442e-01       2.074255552664e+03 
       1.529043241975e-01       1.941886804844e+03 
       1.580213721861e-01       1.819745984790e+03 
       1.633079094911e-01       1.714676883865e+03 
       1.687701884391e-01       1.629792362967e+03 
       1.744145202864e-01       1.563947080885e+03 
       1.802472927031e-01       1.511626857244e+03 
       1.862749917180e-01       1.465106754687e+03 
       1.925042289813e-01       1.415788703769e+03 
       1.989417752019e-01       1.357150390374e+03 
       2.055946006350e-01       1.288231120473e+03 
       2.124699235225e-01       1.213804908196e+03 
       2.195752674512e-01       1.141430319694e+03 
       2.269185286902e-01       1.077732023140e+03 
       2.345080547155e-01       1.026016427858e+03 
       2.423527353509e-01       9.851853238558e+02 
       2.504621082570e-01       9.500626112681e+02 
       2.588464809217e-01       9.141456677730e+02 
       2.675170718728e-01       8.736901729736e+02 
       2.764861745867e-01       8.293872489471e+02 
       2.857673485676e-01       7.855477075051e+02 
       2.953756433939e-01       7.470199898095e+02 
       3.053278632782e-01       7.150513605499e+02 
       3.156428820193e-01       6.871796759080e+02 
       3.263420213562e-01       6.595925382562e+02 
       3.374495099765e-01       6.301808593213e+02 
       3.489930462605e-01       6.003627122391e+02 
       3.610044959369e-01       5.727721094611e+02 
       3.735207672561e-01       5.485734737266e+02 
       3.865849226603e-01       5.262081095979e+02 
       4.002476098023e-01       5.038114269467e+02 
       4.145689302190e-01       4.813023915777e+02 
       4.296209176886e-01       4.600004495154e+02 
       4.454908815347e-01       4.402886787688e+02 
       4.622860022811e-01       4.213535543853e+02 
       4.801397825991e-01       4.025127564455e+02 
       4.992213188510e-01       3.842393759772e+02 
       5.197489887388e-01       3.667892329305e+02 
       5.420112893203e-01       3.495308075271e+02 
       5.663997084830e-01       3.324402027783e+02 
       5.934627725556e-01       3.155648519721e+02 
       6.239993427101e-01       2.985208559983e+02 
       6.592291724542e-01       2.811683427381e+02 
       7.011264336281e-01       2.630895690389e+02 
       7.531239737703e-01       2.437677732468e+02 
       8.217203627665e-01       2.223076647295e+02 
       9.202773945291e-01       1.973027722450e+02 
       1.076080634432e+00       1.671119255641e+02 
       1.324171164053e+00       1.330974782308e+02 
       1.664230651192e+00       1.018452959666e+02 
       2.095088782300e+00       7.585088016240e+01 
       2.637560307859e+00       5.476927806671e+01 
       3.320491696597e+00       3.821929382129e+01 
       4.180251376498e+00       2.577903516418e+01 
       5.262624685560e+00       1.686080852712e+01 
       6.625251949387e+00       1.074305102666e+01 
       8.340698038623e+00       6.700422928671e+00 
       1.050031671292e+01       4.108926949543e+00 
       1.321911554179e+01       2.486942591523e+00 
       1.664188047700e+01       1.490305993430e+00 
       2.095088623253e+01       8.864109384566e-01 
       2.637560307775e+01       5.242959101210e-01 
       3.320491696597e+01       3.088375276492e-01 
       4.180251376498e+01       1.813710365405e-01 
       5.262624685560e+01       1.062772740659e-01 
       6.625251949387e+01       6.217359160394e-02 
       8.340698038623e+01       3.632909071660e-02 
       1.050031671292e+02       2.120925134138e-02 
       1.321911554179e+02       1.237428889212e-02 
       1.664188047700e+02       7.216285638903e-03 
       2.095088623253e+02       4.206879886923e-03 
       2.637560307775e+02       2.451879641513e-03 
       3.320491696597e+02       1.428761721352e-03 
       4.180251376498e+02       8.324597540216e-04 
       5.262624685560e+02       4.849812090462e-04 
       6.625251949387e+02       2.825244750678e-04 
       8.340698038623e+02       1.645754195120e-04 
       1.050031671292e+03       9.586445392189e-05 
       1.321911554179e+03       5.583909349554e-05 
       1.664188047700e+03       3.252448611503e-05 
       2.095088623253e+03       1.894419669478e-05 
       2.637560307775e+03       1.103411026656e-05 
       3.320491696597e+03       6.426804170720e-06 
       4.180251376498e+03       3.743263045091e-06 
       5.262624685560e+03       2.180237597336e-06 
       6.625251949387e+03       1.269860417925e-06 
       8.340698038623e+03       7.396175139305e-07 
       1.050031671292e+04       4.307821353764e-07 
